time,temperature_2m_max,temperature_2m_min,precipitation_sum,il
2024-05-01,25.4,16.0,1.3,Kahramanmaraş
2024-05-02,22.4,15.8,7.4,Kahramanmaraş
2024-05-03,21.9,13.6,1.8,Kahramanmaraş
2024-05-04,19.2,11.7,11.2,Kahramanmaraş
2024-05-05,15.1,11.9,15.1,Kahramanmaraş
2024-05-06,18.3,10.4,5.3,Kahramanmaraş
2024-05-07,20.2,9.4,0.1,Kahramanmaraş
2024-05-08,22.9,9.8,0.0,Kahramanmaraş
2024-05-09,24.3,11.5,0.0,Kahramanmaraş
2024-05-10,27.1,14.2,0.3,Kahramanmaraş
2024-05-11,23.8,14.4,12.4,Kahramanmaraş
2024-05-12,20.4,13.4,4.8,Kahramanmaraş
2024-05-13,18.1,12.4,3.6,Kahramanmaraş
2024-05-14,21.3,9.9,0.0,Kahramanmaraş
2024-05-15,22.1,11.0,0.4,Kahramanmaraş
2024-05-16,22.2,11.1,1.1,Kahramanmaraş
2024-05-17,23.8,12.4,0.2,Kahramanmaraş
2024-05-18,25.8,14.9,0.1,Kahramanmaraş
2024-05-19,29.3,15.7,0.0,Kahramanmaraş
2024-05-20,28.8,16.0,0.0,Kahramanmaraş
2024-05-21,29.2,16.0,0.0,Kahramanmaraş
2024-05-22,29.3,16.2,0.0,Kahramanmaraş
2024-05-23,27.3,18.0,0.0,Kahramanmaraş
2024-05-24,22.6,15.8,9.9,Kahramanmaraş
2024-05-25,22.2,13.0,6.8,Kahramanmaraş
2024-05-26,24.4,14.1,0.0,Kahramanmaraş
2024-05-27,25.0,13.5,1.0,Kahramanmaraş
2024-05-28,26.3,14.7,0.5,Kahramanmaraş
2024-05-29,27.8,13.9,0.0,Kahramanmaraş
2024-05-30,26.2,16.5,0.0,Kahramanmaraş
2024-05-31,24.7,16.8,0.0,Kahramanmaraş
2024-06-01,30.8,15.3,0.0,Kahramanmaraş
2024-06-02,33.1,15.6,0.0,Kahramanmaraş
2024-06-03,35.1,17.1,0.0,Kahramanmaraş
2024-06-04,36.2,19.3,0.0,Kahramanmaraş
2024-06-05,36.4,18.8,0.0,Kahramanmaraş
2024-06-06,37.3,20.0,0.0,Kahramanmaraş
2024-06-07,36.8,22.0,0.0,Kahramanmaraş
2024-06-08,34.9,21.3,0.0,Kahramanmaraş
2024-06-09,30.5,19.3,0.0,Kahramanmaraş
2024-06-10,33.1,19.8,0.0,Kahramanmaraş
2024-06-11,35.3,17.7,0.0,Kahramanmaraş
2024-06-12,38.4,19.3,0.0,Kahramanmaraş
2024-06-13,37.5,21.0,0.0,Kahramanmaraş
2024-06-14,38.3,21.1,0.0,Kahramanmaraş
2024-06-15,36.2,22.0,0.3,Kahramanmaraş
2024-06-16,34.8,20.4,0.0,Kahramanmaraş
2024-06-17,37.0,19.1,0.0,Kahramanmaraş
2024-06-18,38.6,20.2,0.0,Kahramanmaraş
2024-06-19,39.8,22.5,0.0,Kahramanmaraş
2024-06-20,40.1,21.4,0.0,Kahramanmaraş
2024-06-21,38.8,22.9,0.0,Kahramanmaraş
2024-06-22,39.0,21.2,0.0,Kahramanmaraş
2024-06-23,37.5,21.2,0.0,Kahramanmaraş
2024-06-24,37.7,21.4,0.0,Kahramanmaraş
2024-06-25,35.8,21.4,0.0,Kahramanmaraş
2024-06-26,37.7,21.9,0.0,Kahramanmaraş
2024-06-27,37.1,19.9,0.0,Kahramanmaraş
2024-06-28,37.5,21.1,0.0,Kahramanmaraş
2024-06-29,35.8,21.1,0.0,Kahramanmaraş
2024-06-30,34.8,21.5,0.3,Kahramanmaraş
2024-07-01,33.9,21.2,0.0,Kahramanmaraş
2024-07-02,34.7,22.0,0.0,Kahramanmaraş
2024-07-03,33.7,20.5,0.0,Kahramanmaraş
2024-07-04,34.9,21.2,0.0,Kahramanmaraş
2024-07-05,32.4,19.6,0.0,Kahramanmaraş
2024-07-06,34.7,21.4,0.0,Kahramanmaraş
2024-07-07,38.0,22.3,0.0,Kahramanmaraş
2024-07-08,38.1,22.7,0.0,Kahramanmaraş
2024-07-09,37.5,23.6,0.0,Kahramanmaraş
2024-07-10,36.9,22.9,0.2,Kahramanmaraş
2024-07-11,36.6,22.9,0.0,Kahramanmaraş
2024-07-12,35.4,23.2,0.6,Kahramanmaraş
2024-07-13,33.7,22.9,0.0,Kahramanmaraş
2024-07-14,32.4,23.8,0.0,Kahramanmaraş
2024-07-15,34.0,22.7,0.3,Kahramanmaraş
2024-07-16,35.1,22.7,0.0,Kahramanmaraş
2024-07-17,35.1,23.3,0.0,Kahramanmaraş
2024-07-18,36.7,23.2,0.0,Kahramanmaraş
2024-07-19,38.1,23.8,0.0,Kahramanmaraş
2024-07-20,37.2,24.0,0.0,Kahramanmaraş
2024-07-21,38.6,23.5,0.0,Kahramanmaraş
2024-07-22,39.9,23.1,0.0,Kahramanmaraş
2024-07-23,39.7,23.0,0.0,Kahramanmaraş
2024-07-24,34.7,23.7,0.7,Kahramanmaraş
2024-07-25,32.6,24.6,0.2,Kahramanmaraş
2024-07-26,32.2,23.4,0.0,Kahramanmaraş
2024-07-27,35.9,21.6,0.0,Kahramanmaraş
2024-07-28,36.1,23.8,0.0,Kahramanmaraş
2024-07-29,38.2,21.3,0.0,Kahramanmaraş
2024-07-30,36.9,20.5,0.0,Kahramanmaraş
2024-07-31,37.4,23.3,0.0,Kahramanmaraş
2024-08-01,36.1,22.6,0.0,Kahramanmaraş
2024-08-02,36.4,21.9,0.0,Kahramanmaraş
2024-08-03,35.5,21.4,0.0,Kahramanmaraş
2024-08-04,35.2,21.9,0.0,Kahramanmaraş
2024-08-05,37.3,22.1,0.0,Kahramanmaraş
2024-08-06,36.0,22.5,0.0,Kahramanmaraş
2024-08-07,36.0,22.7,0.0,Kahramanmaraş
2024-08-08,37.6,22.1,0.0,Kahramanmaraş
2024-08-09,37.5,22.3,0.0,Kahramanmaraş
2024-08-10,36.3,22.4,0.0,Kahramanmaraş
2024-08-11,37.6,22.2,0.0,Kahramanmaraş
2024-08-12,37.4,23.1,0.0,Kahramanmaraş
2024-08-13,38.4,23.3,0.0,Kahramanmaraş
2024-08-14,40.3,21.9,0.0,Kahramanmaraş
2024-08-15,39.9,23.0,0.0,Kahramanmaraş
2024-08-16,39.0,22.6,0.0,Kahramanmaraş
2024-08-17,38.2,22.7,0.0,Kahramanmaraş
2024-08-18,38.1,21.5,0.0,Kahramanmaraş
2024-08-19,37.4,22.8,0.0,Kahramanmaraş
2024-08-20,37.5,21.5,0.0,Kahramanmaraş
2024-08-21,39.6,22.6,0.0,Kahramanmaraş
2024-08-22,34.3,22.8,0.0,Kahramanmaraş
2024-08-23,36.2,21.5,0.0,Kahramanmaraş
2024-08-24,34.8,22.7,0.1,Kahramanmaraş
2024-08-25,32.6,20.9,0.0,Kahramanmaraş
2024-08-26,34.1,21.0,0.0,Kahramanmaraş
2024-08-27,32.8,21.6,0.0,Kahramanmaraş
2024-08-28,32.9,21.6,0.0,Kahramanmaraş
2024-08-29,32.7,22.7,0.0,Kahramanmaraş
2024-08-30,31.2,21.9,0.0,Kahramanmaraş
2024-08-31,31.6,20.5,0.0,Kahramanmaraş
2024-09-01,30.0,21.3,0.0,Kahramanmaraş
2024-09-02,29.7,20.0,0.4,Kahramanmaraş
2024-09-03,32.3,19.2,0.0,Kahramanmaraş
2024-09-04,32.2,20.8,0.0,Kahramanmaraş
2024-09-05,33.4,21.7,0.6,Kahramanmaraş
2024-09-06,35.1,20.4,0.0,Kahramanmaraş
2024-09-07,34.3,22.0,0.0,Kahramanmaraş
2024-09-08,31.1,21.2,7.7,Kahramanmaraş
2024-09-09,34.6,19.3,0.0,Kahramanmaraş
2024-09-10,33.8,19.2,0.0,Kahramanmaraş
2024-09-11,30.8,18.8,0.0,Kahramanmaraş
2024-09-12,32.2,19.8,0.0,Kahramanmaraş
2024-09-13,32.6,19.9,0.0,Kahramanmaraş
2024-09-14,30.9,20.1,0.0,Kahramanmaraş
2024-09-15,32.5,19.1,0.0,Kahramanmaraş
2024-09-16,28.0,19.7,0.0,Kahramanmaraş
2024-09-17,27.5,19.5,0.4,Kahramanmaraş
2024-09-18,31.0,17.6,0.0,Kahramanmaraş
2024-09-19,27.7,18.5,0.7,Kahramanmaraş
2024-09-20,29.1,16.8,0.0,Kahramanmaraş
2024-09-21,26.2,16.8,5.0,Kahramanmaraş
2024-09-22,21.0,14.8,11.1,Kahramanmaraş
2024-09-23,25.7,14.3,0.0,Kahramanmaraş
2024-09-24,26.8,14.1,0.0,Kahramanmaraş
2024-09-25,29.1,16.1,0.0,Kahramanmaraş
2024-09-26,30.3,16.0,0.0,Kahramanmaraş
2024-09-27,31.8,15.2,0.0,Kahramanmaraş
2024-09-28,32.9,14.0,0.0,Kahramanmaraş
2024-09-29,31.7,18.5,0.0,Kahramanmaraş
2024-09-30,28.9,17.1,0.4,Kahramanmaraş
2024-10-01,24.8,15.6,9.0,Kahramanmaraş
2024-10-02,26.4,14.2,0.0,Kahramanmaraş
2024-10-03,26.8,12.4,0.0,Kahramanmaraş
2024-10-04,28.9,13.7,0.0,Kahramanmaraş
2024-10-05,30.2,13.6,0.0,Kahramanmaraş
2024-10-06,31.2,17.7,0.0,Kahramanmaraş
2024-10-07,31.6,18.4,0.0,Kahramanmaraş
2024-10-08,31.3,16.3,0.0,Kahramanmaraş
2024-10-09,31.8,17.2,0.0,Kahramanmaraş
2024-10-10,29.8,16.9,0.0,Kahramanmaraş
2024-10-11,27.6,17.3,0.1,Kahramanmaraş
2024-10-12,29.0,16.7,0.0,Kahramanmaraş
2024-10-13,28.4,16.2,0.0,Kahramanmaraş
2024-10-14,28.3,17.2,0.0,Kahramanmaraş
2024-10-15,28.7,15.7,0.0,Kahramanmaraş
2024-10-16,28.4,17.1,0.0,Kahramanmaraş
2024-10-17,26.2,15.7,0.0,Kahramanmaraş
2024-10-18,19.7,11.6,0.0,Kahramanmaraş
2024-10-19,19.8,8.8,0.0,Kahramanmaraş
2024-10-20,19.3,7.3,0.0,Kahramanmaraş
2024-10-21,19.3,9.4,0.0,Kahramanmaraş
2024-10-22,18.2,10.7,0.0,Kahramanmaraş
2024-10-23,19.8,8.4,0.0,Kahramanmaraş
2024-10-24,22.4,6.8,0.0,Kahramanmaraş
2024-10-25,21.9,7.9,0.0,Kahramanmaraş
2024-10-26,22.6,6.8,0.0,Kahramanmaraş
2024-10-27,21.1,8.5,0.0,Kahramanmaraş
2024-10-28,21.7,5.6,0.0,Kahramanmaraş
2024-10-29,22.3,5.3,0.0,Kahramanmaraş
2024-10-30,23.0,9.6,0.0,Kahramanmaraş
2024-10-31,22.7,10.4,2.3,Kahramanmaraş
2024-11-01,23.4,10.4,0.0,Kahramanmaraş
2024-11-02,22.7,9.2,0.0,Kahramanmaraş
2024-11-03,22.2,10.4,1.1,Kahramanmaraş
2024-11-04,19.9,8.0,0.0,Kahramanmaraş
2024-11-05,19.3,6.3,0.0,Kahramanmaraş
2024-11-06,18.7,5.8,0.0,Kahramanmaraş
2024-11-07,20.2,7.4,0.0,Kahramanmaraş
2024-11-08,20.8,5.6,0.0,Kahramanmaraş
2024-11-09,20.8,6.2,0.0,Kahramanmaraş
2024-11-10,20.2,9.8,0.9,Kahramanmaraş
2024-11-11,18.7,10.2,2.9,Kahramanmaraş
2024-11-12,20.7,6.4,0.0,Kahramanmaraş
2024-11-13,21.2,6.4,0.0,Kahramanmaraş
2024-11-14,20.3,7.1,0.0,Kahramanmaraş
2024-11-15,19.0,7.3,0.0,Kahramanmaraş
2024-11-16,18.0,8.6,0.0,Kahramanmaraş
2024-11-17,15.2,8.7,14.2,Kahramanmaraş
2024-11-18,13.2,9.3,17.9,Kahramanmaraş
2024-11-19,16.2,8.1,0.3,Kahramanmaraş
2024-11-20,14.9,8.4,1.5,Kahramanmaraş
2024-11-21,13.7,9.8,3.6,Kahramanmaraş
2024-11-22,16.1,9.9,1.2,Kahramanmaraş
2024-11-23,17.9,11.0,0.0,Kahramanmaraş
2024-11-24,12.3,3.3,21.0,Kahramanmaraş
2024-11-25,6.4,2.9,0.0,Kahramanmaraş
2024-11-26,8.7,0.9,0.0,Kahramanmaraş
2024-11-27,9.6,-0.6,0.0,Kahramanmaraş
2024-11-28,10.8,-0.0,0.0,Kahramanmaraş
2024-11-29,10.8,0.3,0.0,Kahramanmaraş
2024-11-30,11.4,0.5,0.0,Kahramanmaraş
2024-12-01,12.8,-0.0,0.0,Kahramanmaraş
2024-12-02,12.6,-0.1,0.0,Kahramanmaraş
2024-12-03,12.1,1.2,0.0,Kahramanmaraş
2024-12-04,8.0,3.1,1.9,Kahramanmaraş
2024-12-05,13.4,5.9,0.0,Kahramanmaraş
2024-12-06,14.1,3.6,0.0,Kahramanmaraş
2024-12-07,14.7,5.8,0.0,Kahramanmaraş
2024-12-08,12.9,5.0,0.7,Kahramanmaraş
2024-12-09,15.8,3.3,0.0,Kahramanmaraş
2024-12-10,15.9,4.6,0.0,Kahramanmaraş
2024-12-11,14.3,5.7,0.0,Kahramanmaraş
2024-12-12,14.9,4.2,0.0,Kahramanmaraş
2024-12-13,11.3,2.4,0.0,Kahramanmaraş
2024-12-14,9.1,0.2,0.0,Kahramanmaraş
2024-12-15,7.5,0.2,0.0,Kahramanmaraş
2024-12-16,4.4,1.5,2.4,Kahramanmaraş
2024-12-17,9.8,-0.3,0.0,Kahramanmaraş
2024-12-18,12.1,0.5,0.0,Kahramanmaraş
2024-12-19,12.5,0.6,0.0,Kahramanmaraş
2024-12-20,10.8,1.8,0.0,Kahramanmaraş
2024-12-21,12.1,0.4,0.0,Kahramanmaraş
2024-12-22,8.4,5.2,10.2,Kahramanmaraş
2024-12-23,8.7,5.7,20.8,Kahramanmaraş
2024-12-24,11.5,6.2,6.0,Kahramanmaraş
2024-12-25,14.2,6.8,0.1,Kahramanmaraş
2024-12-26,10.4,6.5,3.8,Kahramanmaraş
2024-12-27,9.5,5.6,6.5,Kahramanmaraş
2024-12-28,11.1,3.3,0.0,Kahramanmaraş
2024-12-29,8.8,4.9,2.2,Kahramanmaraş
2024-12-30,8.4,6.3,19.5,Kahramanmaraş
2024-12-31,12.6,3.8,0.1,Kahramanmaraş
2025-01-01,12.2,0.3,0.0,Kahramanmaraş
2025-01-02,13.2,0.3,0.0,Kahramanmaraş
2025-01-03,11.1,0.9,0.0,Kahramanmaraş
2025-01-04,10.7,1.2,0.0,Kahramanmaraş
2025-01-05,9.2,1.7,0.3,Kahramanmaraş
2025-01-06,10.4,1.9,0.0,Kahramanmaraş
2025-01-07,12.0,0.3,0.0,Kahramanmaraş
2025-01-08,13.0,1.5,0.0,Kahramanmaraş
2025-01-09,14.3,1.0,0.0,Kahramanmaraş
2025-01-10,13.4,2.7,0.0,Kahramanmaraş
2025-01-11,12.7,2.0,0.0,Kahramanmaraş
2025-01-12,12.7,2.3,0.0,Kahramanmaraş
2025-01-13,12.3,3.3,0.0,Kahramanmaraş
2025-01-14,14.4,4.8,0.0,Kahramanmaraş
2025-01-15,14.4,4.9,0.0,Kahramanmaraş
2025-01-16,13.9,4.5,1.1,Kahramanmaraş
2025-01-17,13.0,2.2,0.0,Kahramanmaraş
2025-01-18,14.2,0.9,0.0,Kahramanmaraş
2025-01-19,15.7,1.3,0.0,Kahramanmaraş
2025-01-20,11.9,1.3,0.0,Kahramanmaraş
2025-01-21,11.4,-0.8,0.0,Kahramanmaraş
2025-01-22,7.9,1.3,0.2,Kahramanmaraş
2025-01-23,5.0,1.2,4.4,Kahramanmaraş
2025-01-24,9.5,2.8,0.0,Kahramanmaraş
2025-01-25,10.9,2.0,0.0,Kahramanmaraş
2025-01-26,12.1,1.8,0.0,Kahramanmaraş
2025-01-27,12.4,0.9,0.0,Kahramanmaraş
2025-01-28,13.3,-0.9,0.0,Kahramanmaraş
2025-01-29,13.7,1.1,0.0,Kahramanmaraş
2025-01-30,14.9,0.8,0.0,Kahramanmaraş
2025-01-31,14.0,0.9,0.0,Kahramanmaraş
2025-02-01,15.4,-0.1,0.0,Kahramanmaraş
2025-02-02,15.6,0.6,0.0,Kahramanmaraş
2025-02-03,14.9,1.3,0.0,Kahramanmaraş
2025-02-04,13.6,1.6,0.0,Kahramanmaraş
2025-02-05,7.8,3.2,3.0,Kahramanmaraş
2025-02-06,6.3,0.8,0.1,Kahramanmaraş
2025-02-07,5.6,-0.6,0.6,Kahramanmaraş
2025-02-08,9.8,0.1,0.0,Kahramanmaraş
2025-02-09,10.0,-1.3,0.0,Kahramanmaraş
2025-02-10,9.5,2.0,2.8,Kahramanmaraş
2025-02-11,5.1,1.7,11.6,Kahramanmaraş
2025-02-12,8.1,1.5,8.9,Kahramanmaraş
2025-02-13,7.4,1.2,16.1,Kahramanmaraş
2025-02-14,11.0,0.2,0.0,Kahramanmaraş
2025-02-15,11.3,-0.2,0.0,Kahramanmaraş
2025-02-16,11.6,3.0,0.0,Kahramanmaraş
2025-02-17,13.0,0.4,0.0,Kahramanmaraş
2025-02-18,12.6,3.5,0.4,Kahramanmaraş
2025-02-19,10.2,6.6,15.0,Kahramanmaraş
2025-02-20,7.0,-0.5,0.0,Kahramanmaraş
2025-02-21,2.8,-3.2,0.0,Kahramanmaraş
2025-02-22,2.5,-4.1,0.0,Kahramanmaraş
2025-02-23,1.5,-4.8,0.0,Kahramanmaraş
2025-02-24,2.8,-5.4,0.0,Kahramanmaraş
2025-02-25,5.9,-4.4,0.0,Kahramanmaraş
2025-02-26,8.3,-2.7,0.0,Kahramanmaraş
2025-02-27,11.2,-0.8,0.0,Kahramanmaraş
2025-02-28,10.7,-0.6,0.0,Kahramanmaraş
2025-03-01,13.4,0.4,0.0,Kahramanmaraş
2025-03-02,15.1,-1.2,0.0,Kahramanmaraş
2025-03-03,11.5,4.4,0.9,Kahramanmaraş
2025-03-04,15.9,3.2,0.0,Kahramanmaraş
2025-03-05,19.1,2.3,0.0,Kahramanmaraş
2025-03-06,20.0,1.5,0.0,Kahramanmaraş
2025-03-07,20.9,2.7,0.0,Kahramanmaraş
2025-03-08,20.7,3.2,0.0,Kahramanmaraş
2025-03-09,19.3,7.1,0.0,Kahramanmaraş
2025-03-10,19.7,5.5,0.3,Kahramanmaraş
2025-03-11,21.3,5.4,0.0,Kahramanmaraş
2025-03-12,21.8,6.5,0.0,Kahramanmaraş
2025-03-13,22.5,7.0,0.0,Kahramanmaraş
2025-03-14,23.0,8.8,0.0,Kahramanmaraş
2025-03-15,26.3,7.2,0.0,Kahramanmaraş
2025-03-16,25.9,9.1,0.0,Kahramanmaraş
2025-03-17,24.4,9.6,0.5,Kahramanmaraş
2025-03-18,21.0,11.3,4.9,Kahramanmaraş
2025-03-19,15.2,2.6,11.3,Kahramanmaraş
2025-03-20,6.5,1.3,15.0,Kahramanmaraş
2025-03-21,8.3,1.5,0.6,Kahramanmaraş
2025-03-22,12.0,0.4,0.0,Kahramanmaraş
2025-03-23,15.5,1.4,0.0,Kahramanmaraş
2025-03-24,20.1,3.0,0.0,Kahramanmaraş
2025-03-25,23.8,6.2,0.0,Kahramanmaraş
2025-03-26,24.5,9.4,0.0,Kahramanmaraş
2025-03-27,24.5,9.4,0.0,Kahramanmaraş
2025-03-28,26.5,11.2,0.0,Kahramanmaraş
2025-03-29,22.6,12.8,0.0,Kahramanmaraş
2025-03-30,13.0,9.0,57.2,Kahramanmaraş
2025-03-31,17.4,8.0,0.6,Kahramanmaraş
2025-04-01,19.3,7.8,4.7,Kahramanmaraş
2025-04-02,15.9,9.6,10.2,Kahramanmaraş
2025-04-03,15.7,9.1,17.8,Kahramanmaraş
2025-04-04,15.8,8.3,3.8,Kahramanmaraş
2025-04-05,15.9,7.8,0.8,Kahramanmaraş
2025-04-06,18.4,8.4,11.5,Kahramanmaraş
2025-04-07,21.1,7.8,11.2,Kahramanmaraş
2025-04-08,19.0,7.3,0.7,Kahramanmaraş
2025-04-09,21.0,10.7,1.6,Kahramanmaraş
2025-04-10,13.6,5.8,17.5,Kahramanmaraş
2025-04-11,11.7,3.0,24.8,Kahramanmaraş
2025-04-12,12.8,0.1,0.3,Kahramanmaraş
2025-04-13,13.8,3.7,0.0,Kahramanmaraş
2025-04-14,12.5,3.8,0.3,Kahramanmaraş
2025-04-15,15.6,6.7,0.1,Kahramanmaraş
2025-04-16,17.9,5.1,0.0,Kahramanmaraş
2025-04-17,22.1,6.0,0.0,Kahramanmaraş
2025-04-18,23.2,8.9,0.0,Kahramanmaraş
2025-04-19,24.3,9.4,0.0,Kahramanmaraş
2025-04-20,23.0,9.5,0.0,Kahramanmaraş
2025-04-21,24.5,9.6,0.0,Kahramanmaraş
2025-04-22,26.1,11.3,0.0,Kahramanmaraş
2025-04-23,25.4,11.3,0.0,Kahramanmaraş
2025-04-24,22.7,12.8,1.0,Kahramanmaraş
2025-04-25,18.6,11.6,1.5,Kahramanmaraş
2025-04-26,17.6,9.8,5.8,Kahramanmaraş
2025-04-27,22.2,8.5,0.0,Kahramanmaraş
2025-04-28,24.8,10.2,0.0,Kahramanmaraş
2025-04-29,21.6,13.0,0.7,Kahramanmaraş
2025-04-30,25.1,11.6,2.6,Kahramanmaraş
